# t(fs)   T(K)
0.00000000 300.18479654
0.30000000 300.43160867
0.60000000 300.67019515
0.90000000 300.90065361
1.20000000 301.12308166
1.50000000 301.33757691
1.80000000 301.54423699
2.10000000 301.74315951
2.40000000 301.93444209
2.70000000 302.11818234
3.00000000 302.29447789
3.30000000 302.46342635
3.60000000 302.62512534
3.90000000 302.77967248
4.20000000 302.92716538
4.50000000 303.06770166
4.80000000 303.20137893
5.10000000 303.32829483
5.40000000 303.44854695
5.70000000 303.56223293
6.00000000 303.66945038
6.30000000 303.77029691
6.60000000 303.86487014
6.90000000 303.95326770
7.20000000 304.03558719
7.50000000 304.11192624
7.80000000 304.18238246
8.10000000 304.24705347
8.40000000 304.30603688
8.70000000 304.35943033
9.00000000 304.40733141
9.30000000 304.44983775
9.60000000 304.48704697
9.90000000 304.51905669
10.20000000 304.54596451
10.50000000 304.56786807
10.80000000 304.58486497
11.10000000 304.59705284
11.40000000 304.60452929
11.70000000 304.60739193
12.00000000 304.60573840
12.30000000 304.59966629
12.60000000 304.58927324
12.90000000 304.57465686
13.20000000 304.55591476
13.50000000 304.53314456
13.80000000 304.50644389
14.10000000 304.47591035
14.40000000 304.44164157
14.70000000 304.40373517
15.00000000 304.36228875
15.30000000 304.31739994
15.60000000 304.26916636
15.90000000 304.21768561
16.20000000 304.16305533
16.50000000 304.10537313
16.80000000 304.04473662
17.10000000 303.98124342
17.40000000 303.91499116
17.70000000 303.84607744
18.00000000 303.77459988
18.30000000 303.70065611
18.60000000 303.62434373
18.90000000 303.54576037
19.20000000 303.46500365
19.50000000 303.38217118
19.80000000 303.29736058
20.10000000 303.21066946
20.40000000 303.12219545
20.70000000 303.03203615
21.00000000 302.94028920
21.30000000 302.84705220
21.60000000 302.75242278
21.90000000 302.65649855
22.20000000 302.55937712
22.50000000 302.39691503
22.80000000 302.28733114
23.10000000 302.19042621
23.40000000 302.11248144
23.70000000 302.05604320
24.00000000 302.01937787
24.30000000 301.99673630
24.60000000 301.97935953
24.90000000 301.95702949
25.20000000 301.91986703
25.50000000 301.86004001
25.80000000 301.77304262
26.10000000 301.65830050
26.40000000 301.51901573
26.70000000 301.36137558
27.00000000 301.19344237
27.30000000 301.02399700
27.60000000 300.86145239
27.90000000 300.71295745
28.20000000 300.58366659
28.50000000 300.47611439
28.80000000 300.38974279
29.10000000 300.32080286
29.40000000 300.26283839
29.70000000 300.20773660
30.00000000 300.14723940
30.30000000 300.07458862
30.60000000 299.98590221
30.90000000 299.88100934
31.20000000 299.76360830
31.50000000 299.64069497
31.80000000 299.52130947
32.10000000 299.41485638
32.40000000 299.32934076
32.70000000 299.26989554
33.00000000 299.23791361
33.30000000 299.23091148
33.60000000 299.24308979
33.90000000 299.26642057
34.20000000 299.29206725
34.50000000 299.31182351
34.80000000 299.31929849
35.10000000 299.31067525
35.40000000 299.28490639
35.70000000 299.24335885
36.00000000 299.18914268
36.30000000 299.12641770
36.60000000 299.05986193
36.90000000 298.99429130
37.20000000 298.93425645
37.50000000 298.88351408
37.80000000 298.84437193
38.10000000 298.81708952
38.40000000 298.79967744
38.70000000 298.78824200
39.00000000 298.77780676
39.30000000 298.76337661
39.60000000 298.74092075
39.90000000 298.70809229
40.20000000 298.66461398
40.50000000 298.61230690
40.80000000 298.55475966
41.10000000 298.49672721
41.40000000 298.44333945
41.70000000 298.39924683
42.00000000 298.36790707
42.30000000 298.35115858
42.60000000 298.34910571
42.90000000 298.36026183
43.20000000 298.38190799
43.50000000 298.41061725
43.80000000 298.44281682
44.10000000 298.47521960
44.40000000 298.50511467
44.70000000 298.53047784
45.00000000 298.54990431
45.30000000 298.56253755
45.60000000 298.56810547
45.90000000 298.56705591
46.20000000 298.56067113
46.50000000 298.55099580
46.80000000 298.54049837
47.10000000 298.53153481
47.40000000 298.52579224
47.70000000 298.52388837
48.00000000 298.52527096
48.30000000 298.52841714
48.60000000 298.53118815
48.90000000 298.53124882
49.20000000 298.52645906
49.50000000 298.51518459
49.80000000 298.49654770
50.10000000 298.47058635
50.40000000 298.43829208
50.70000000 298.40151781
51.00000000 298.36282328
51.30000000 298.32525064
51.60000000 298.29197681
51.90000000 298.26594351
52.20000000 298.24951586
52.50000000 298.24420878
52.80000000 298.25050713
53.10000000 298.26778363
53.40000000 298.29429930
53.70000000 298.32731859
54.00000000 298.36339496
54.30000000 298.39877802
54.60000000 298.42996256
54.90000000 298.45430892
55.20000000 298.47055555
55.50000000 298.47907301
55.80000000 298.48179151
56.10000000 298.48178654
56.40000000 298.48260317
56.70000000 298.48753585
57.00000000 298.49900916
57.30000000 298.51814330
57.60000000 298.54460515
57.90000000 298.57668200
58.20000000 298.61147184
58.50000000 298.64516944
58.80000000 298.67345524
59.10000000 298.69203233
59.40000000 298.69727734
59.70000000 298.68692058
60.00000000 298.66061185
60.30000000 298.62018801
60.60000000 298.56955999
60.90000000 298.51423572
61.20000000 298.46051922
61.50000000 298.41456737
61.80000000 298.38149369
62.10000000 298.36466979
62.40000000 298.36535276
62.70000000 298.38260968
63.00000000 298.41348441
63.30000000 298.45345725
63.60000000 298.49717210
63.90000000 298.53933484
64.20000000 298.57569652
64.50000000 298.60393967
64.80000000 298.62419079
65.10000000 298.63896166
65.40000000 298.65258063
65.70000000 298.67028611
66.00000000 298.69718228
66.30000000 298.73736042
66.60000000 298.79329135
66.90000000 298.86552131
67.20000000 298.95257706
67.50000000 299.05105811
67.80000000 299.15597930
68.10000000 299.26133057
68.40000000 299.36090039
68.70000000 299.44928028
69.00000000 299.52279258
69.30000000 299.58013792
69.60000000 299.62261716
69.90000000 299.65387092
70.20000000 299.67915606
70.50000000 299.70432036
70.80000000 299.73475756
71.10000000 299.77455762
71.40000000 299.82599828
71.70000000 299.88937649
72.00000000 299.96307778
72.30000000 300.04388767
72.60000000 300.12755684
72.90000000 300.20953113
73.20000000 300.28578406
73.50000000 300.35361477
73.80000000 300.41223806
74.10000000 300.46298251
74.40000000 300.50907043
74.70000000 300.55509774
75.00000000 300.60628731
75.30000000 300.66763319
75.60000000 300.74309689
75.90000000 300.83495999
76.20000000 300.94335532
76.50000000 301.06605839
76.80000000 301.19868099
77.10000000 301.33527373
77.40000000 301.46925560
77.70000000 301.59451793
78.00000000 301.70638444
78.30000000 301.80220788
78.60000000 301.88155072
78.90000000 301.94591108
79.20000000 301.99810266
79.50000000 302.04152746
79.80000000 302.07950246
80.10000000 302.11476891
80.40000000 302.14920448
80.70000000 302.18365872
81.00000000 302.21785754
81.30000000 302.25037157
81.60000000 302.27871478
81.90000000 302.29964536
82.20000000 302.30974236
82.50000000 302.30616616
82.80000000 302.28739287
83.10000000 302.25372476
83.40000000 302.20741097
83.70000000 302.15234548
84.00000000 302.09343359
84.30000000 302.03581288
84.60000000 301.98412068
84.90000000 301.94187986
85.20000000 301.91105023
85.50000000 301.89182747
85.80000000 301.88275639
86.10000000 301.88113316
86.40000000 301.88358299
86.70000000 301.88669022
87.00000000 301.88752403
87.30000000 301.88396351
87.60000000 301.87479516
87.90000000 301.85964297
88.20000000 301.83879957
88.50000000 301.81299620
88.80000000 301.78322512
89.10000000 301.75063018
89.40000000 301.71637456
89.70000000 301.68150899
90.00000000 301.64682596
90.30000000 301.61269497
90.60000000 301.57891296
90.90000000 301.54458588
91.20000000 301.50814089
91.50000000 301.46753697
91.80000000 301.42066709
92.10000000 301.36584559
92.40000000 301.30222484
92.70000000 301.23004118
93.00000000 301.15060618
93.30000000 301.06609625
93.60000000 300.97924455
93.90000000 300.89295747
94.20000000 300.80988562
94.50000000 300.73205369
94.80000000 300.66066067
95.10000000 300.59613918
95.40000000 300.53841497
95.70000000 300.48720819
96.00000000 300.44226308
96.30000000 300.40341874
96.60000000 300.37053017
96.90000000 300.34332617
97.20000000 300.32132801
97.50000000 300.30386729
97.80000000 300.29024391
98.10000000 300.28000722
98.40000000 300.27321348
98.70000000 300.27054939
99.00000000 300.27325181
99.30000000 300.28278582
99.60000000 300.30030205
99.90000000 300.32606025
100.20000000 300.35902082
100.50000000 300.39680263
100.80000000 300.43609459
101.10000000 300.47339793
101.40000000 300.50586612
101.70000000 300.53191830
102.00000000 300.55141953
102.30000000 300.56549889
102.60000000 300.57611113
102.90000000 300.58551431
103.20000000 300.59582918
103.50000000 300.60875141
103.80000000 300.62549264
104.10000000 300.64686671
104.40000000 300.67346579
104.70000000 300.70584534
105.00000000 300.74460087
105.30000000 300.79031841
105.60000000 300.84338362
105.90000000 300.90372734
106.20000000 300.97067274
106.50000000 301.04300246
106.80000000 301.11927620
107.10000000 301.19832685
107.40000000 301.27972379
107.70000000 301.36403325
108.00000000 301.45282589
108.30000000 301.54831247
108.60000000 301.65268323
108.90000000 301.76737875
109.20000000 301.89247854
109.50000000 302.02640809
109.80000000 302.16611970
110.10000000 302.30773559
110.40000000 302.44741156
110.70000000 302.58214498
111.00000000 302.71030847
111.30000000 302.83174922
111.60000000 302.94752425
111.90000000 303.05938439
112.20000000 303.16920235
112.50000000 303.27852624
112.80000000 303.38829788
113.10000000 303.49874223
113.40000000 303.60941097
113.70000000 303.71934992
114.00000000 303.82733242
114.30000000 303.93210166
114.60000000 304.03257358
114.90000000 304.12790763
115.20000000 304.21750726
115.50000000 304.30101419
115.80000000 304.37833079
116.10000000 304.44973271
116.40000000 304.51602055
116.70000000 304.57861642
117.00000000 304.63953813
117.30000000 304.70118449
117.60000000 304.76590794
117.90000000 304.83548531
118.20000000 304.91061608
118.50000000 304.99062861
118.80000000 305.07352767
119.10000000 305.15640881
119.40000000 305.23608866
119.70000000 305.30971747
120.00000000 305.37527325
120.30000000 305.43184289
120.60000000 305.47970532
120.90000000 305.52023247
121.20000000 305.55558439
121.50000000 305.58828444
121.80000000 305.62069543
122.10000000 305.65443816
122.40000000 305.68988691
122.70000000 305.72590111
123.00000000 305.75995459
123.30000000 305.78863065
123.60000000 305.80829768
123.90000000 305.81580731
124.20000000 305.80902793
124.50000000 305.78712479
124.80000000 305.75058771
125.10000000 305.70104677
125.40000000 305.64100257
125.70000000 305.57354084
126.00000000 305.50209901
126.30000000 305.43029279
126.60000000 305.36163096
126.90000000 305.29907093
127.20000000 305.24452495
127.50000000 305.19844378
127.80000000 305.15964363
128.10000000 305.12550412
128.40000000 305.09244669
128.70000000 305.05661449
129.00000000 305.01458209
129.30000000 304.96395948
129.60000000 304.90387454
129.90000000 304.83525713
130.20000000 304.76086134
130.50000000 304.68493282
130.80000000 304.61242562
131.10000000 304.54787857
131.40000000 304.49425194
131.70000000 304.45207408
132.00000000 304.41921411
132.30000000 304.39134868
132.60000000 304.36300634
132.90000000 304.32882375
133.20000000 304.28462402
133.50000000 304.22809617
133.80000000 304.15898340
134.10000000 304.07886151
134.40000000 303.99062844
134.70000000 303.89785639
135.00000000 303.80419507
135.30000000 303.71287054
135.60000000 303.62628964
135.90000000 303.54578187
136.20000000 303.47142671
136.50000000 303.40206964
136.80000000 303.33561682
137.10000000 303.26955203
137.40000000 303.20155455
137.70000000 303.13002172
138.00000000 303.05437584
138.30000000 302.97510794
138.60000000 302.89363056
138.90000000 302.81213852
139.20000000 302.73357767
139.50000000 302.66163322
139.80000000 302.60045888
140.10000000 302.55400074
140.40000000 302.52501393
140.70000000 302.51410425
141.00000000 302.51918522
141.30000000 302.53566417
141.60000000 302.55741117
141.90000000 302.57818160
142.20000000 302.59302023
142.50000000 302.59925086
142.80000000 302.59680381
143.10000000 302.58788115
143.40000000 302.57618829
143.70000000 302.56597288
144.00000000 302.56112242
144.30000000 302.56450013
144.60000000 302.57754478
144.90000000 302.60005532
145.20000000 302.63021850
145.50000000 302.66489835
145.80000000 302.70009872
146.10000000 302.73157359
146.40000000 302.75552545
146.70000000 302.76927638
147.00000000 302.77177692
147.30000000 302.76380067
147.60000000 302.74781295
147.90000000 302.72761744
148.20000000 302.70787840
148.50000000 302.69360746
148.80000000 302.68960634
149.10000000 302.69983607
149.40000000 302.72674395
149.70000000 302.77066975
150.00000000 302.82951855
150.30000000 302.89891361
150.60000000 302.97297570
150.90000000 303.04557199
151.20000000 303.11174377
151.50000000 303.16887493
151.80000000 303.21722349
152.10000000 303.25969538
152.40000000 303.30099151
152.70000000 303.34646022
153.00000000 303.40094151
153.30000000 303.46785010
153.60000000 303.54860011
153.90000000 303.64237244
154.20000000 303.74623051
154.50000000 303.85555123
154.80000000 303.96472521
155.10000000 304.06803090
155.40000000 304.16052752
155.70000000 304.23880607
156.00000000 304.30143822
156.30000000 304.34908684
156.60000000 304.38433525
156.90000000 304.41127649
157.20000000 304.43491286
157.50000000 304.46041421
157.80000000 304.49228770
158.10000000 304.53359189
158.40000000 304.58539007
158.70000000 304.64654484
159.00000000 304.71390970
159.30000000 304.78292844
159.60000000 304.84853531
159.90000000 304.90624442
160.20000000 304.95321664
160.50000000 304.98903950
160.80000000 305.01601378
161.10000000 305.03884631
161.40000000 305.06377478
161.70000000 305.09736033
162.00000000 305.14518133
162.30000000 305.21072242
162.60000000 305.29474897
162.90000000 305.39522819
163.20000000 305.50780619
163.50000000 305.62665866
163.80000000 305.74549196
164.10000000 305.85848543
164.40000000 305.96103421
164.70000000 306.05024121
165.00000000 306.12509033
165.30000000 306.18638309
165.60000000 306.23644723
165.90000000 306.27867582
166.20000000 306.31699758
166.50000000 306.35524789
166.80000000 306.39647600
167.10000000 306.44232283
167.40000000 306.49264675
167.70000000 306.54545655
168.00000000 306.59720983
168.30000000 306.64348525
168.60000000 306.67990102
168.90000000 306.70311588
169.20000000 306.71168838
169.50000000 306.70658185
169.80000000 306.69120554
170.10000000 306.67095808
170.40000000 306.65230579
170.70000000 306.64158474
171.00000000 306.64375413
171.30000000 306.66137611
171.60000000 306.69417209
171.90000000 306.73924920
172.20000000 306.79190125
172.50000000 306.84675037
172.80000000 306.89885417
173.10000000 306.94451543
173.40000000 306.98174535
173.70000000 307.01036717
174.00000000 307.03184559
174.30000000 307.04892237
174.60000000 307.06503278
174.90000000 307.08357923
175.20000000 307.10718016
175.50000000 307.13702082
175.80000000 307.17251867
176.10000000 307.21140138
176.40000000 307.25018429
176.70000000 307.28489857
177.00000000 307.31183435
177.30000000 307.32815994
177.60000000 307.33225895
177.90000000 307.32381448
178.20000000 307.30378612
178.50000000 307.27434530
178.80000000 307.23874214
179.10000000 307.20097713
179.40000000 307.16524671
179.70000000 307.13522444
180.00000000 307.11328913
180.30000000 307.10000307
180.60000000 307.09406626
180.90000000 307.09274351
181.20000000 307.09270571
181.50000000 307.09097969
181.80000000 307.08564043
182.10000000 307.07611795
182.40000000 307.06318347
182.70000000 307.04875462
183.00000000 307.03558515
183.30000000 307.02688756
183.60000000 307.02590288
183.90000000 307.03536277
184.20000000 307.05690369
184.50000000 307.09056095
184.80000000 307.13453080
185.10000000 307.18535537
185.40000000 307.23852868
185.70000000 307.28940228
186.00000000 307.33415169
186.30000000 307.37050731
186.60000000 307.39805400
186.90000000 307.41804647
187.20000000 307.43284339
187.50000000 307.44520545
187.80000000 307.45764659
188.10000000 307.47196379
188.40000000 307.48900204
188.70000000 307.50859628
189.00000000 307.52960661
189.30000000 307.55004335
189.60000000 307.56741235
189.90000000 307.57934281
190.20000000 307.58427977
190.50000000 307.58202696
190.80000000 307.57394414
191.10000000 307.56271975
191.40000000 307.55181372
191.70000000 307.54477076
192.00000000 307.54469254
192.30000000 307.55396553
192.60000000 307.57417652
192.90000000 307.60606774
193.20000000 307.64946974
193.50000000 307.70318831
193.80000000 307.76492257
194.10000000 307.83137479
194.40000000 307.89861862
194.70000000 307.96272502
195.00000000 308.02057895
195.30000000 308.07071593
195.60000000 308.11385272
195.90000000 308.15288641
196.20000000 308.19226252
196.50000000 308.23684185
196.80000000 308.29058290
197.10000000 308.35546257
197.40000000 308.43091493
197.70000000 308.51390323
198.00000000 308.59960105
198.30000000 308.68247400
198.60000000 308.75747508
198.90000000 308.82109892
199.20000000 308.87206698
199.50000000 308.91147708
199.80000000 308.94241708
200.10000000 308.96915396
200.40000000 308.99614475
200.70000000 309.02714616
201.00000000 309.06468368
201.30000000 309.10995663
201.60000000 309.16302948
201.90000000 309.22313822
202.20000000 309.28897884
202.50000000 309.35890499
202.80000000 309.43105328
203.10000000 309.50350445
203.40000000 309.57449570
203.70000000 309.64270470
204.00000000 309.70759564
204.30000000 309.76976409
204.60000000 309.83117540
204.90000000 309.89510587
205.20000000 309.96569142
205.50000000 310.04710825
205.80000000 310.14250198
206.10000000 310.25296195
206.40000000 310.37691627
206.70000000 310.51017908
207.00000000 310.64671094
207.30000000 310.77984227
207.60000000 310.90361353
207.90000000 311.01396207
208.20000000 311.10941758
208.50000000 311.19120525
208.80000000 311.26275259
209.10000000 311.32867263
209.40000000 311.39358257
209.70000000 311.46108888
210.00000000 311.53320358
210.30000000 311.61030359
210.60000000 311.69148025
210.90000000 311.77500093
211.20000000 311.85867253
211.50000000 311.94006147
211.80000000 312.01666416
212.10000000 312.08617356
212.40000000 312.14684393
212.70000000 312.19792041
213.00000000 312.24003573
213.30000000 312.27538488
213.60000000 312.30760073
213.90000000 312.34135290
214.20000000 312.38171184
214.50000000 312.43328191
214.80000000 312.49927886
215.10000000 312.58079694
215.40000000 312.67646298
215.70000000 312.78264437
216.00000000 312.89420319
216.30000000 313.00556730
216.60000000 313.11179222
216.90000000 313.20943876
217.20000000 313.29704702
217.50000000 313.37513554
217.80000000 313.44582576
218.10000000 313.51215298
218.40000000 313.57725897
218.70000000 313.64361963
219.00000000 313.71250314
219.30000000 313.78384657
219.60000000 313.85652087
219.90000000 313.92876873
220.20000000 313.99856918
220.50000000 314.06379781
220.80000000 314.12220908
221.10000000 314.17143357
221.40000000 314.20915030
221.70000000 314.23345847
222.00000000 314.24341376
222.30000000 314.23950802
222.60000000 314.22389218
222.90000000 314.20025081
223.20000000 314.17328611
223.50000000 314.14783369
223.80000000 314.12786711
224.10000000 314.11573098
224.40000000 314.11179260
224.70000000 314.11463604
225.00000000 314.12170787
225.30000000 314.13013143
225.60000000 314.13744212
225.90000000 314.14210823
226.20000000 314.14370322
226.50000000 314.14278554
226.80000000 314.14059273
227.10000000 314.13860825
227.40000000 314.13814429
227.70000000 314.14003226
228.00000000 314.14451044
228.30000000 314.15133459
228.60000000 314.16002022
228.90000000 314.17008256
229.20000000 314.18109376
229.50000000 314.19244778
229.80000000 314.20297973
230.10000000 314.21068925
230.40000000 314.21277552
230.70000000 314.20610403
231.00000000 314.18796604
231.30000000 314.15681118
231.60000000 314.11268760
231.90000000 314.05725521
232.20000000 313.99341397
232.50000000 313.92464182
232.80000000 313.85427938
233.10000000 313.78496159
233.40000000 313.71824168
233.70000000 313.65450877
234.00000000 313.59318548
234.30000000 313.53317365
